[VERSION]
major 1
minor 3
revision 0

[DEFINITIONS]
Scan_ID 1
Num_Blocks 639
Rot_Matrix 1 0 0 0 1 0 0 0 1

# Format of blocks:
# #  D  RF  GX  GY  GZ  ADC  EXT
[BLOCKS]
1  0  1  0  0  1  0  0
2  1  0  0  0  0  0  0
3  0  0  2  3  4  1  0
4  0  0  0  0  5  0  0
5  2  0  0  0  0  0  0
6  0  2  0  0  1  0  0
7  1  0  0  0  0  0  0
8  0  0  2  6  4  2  0
9  0  0  0  0  5  0  0
10  2  0  0  0  0  0  0
11  0  3  0  0  1  0  0
12  1  0  0  0  0  0  0
13  0  0  2  7  4  3  0
14  0  0  0  0  5  0  0
15  2  0  0  0  0  0  0
16  0  4  0  0  1  0  0
17  1  0  0  0  0  0  0
18  0  0  2  8  4  4  0
19  0  0  0  0  5  0  0
20  2  0  0  0  0  0  0
21  0  5  0  0  1  0  0
22  1  0  0  0  0  0  0
23  0  0  2  9  4  5  0
24  0  0  0  0  5  0  0
25  2  0  0  0  0  0  0
26  0  6  0  0  1  0  0
27  1  0  0  0  0  0  0
28  0  0  2  10  4  6  0
29  0  0  0  0  5  0  0
30  2  0  0  0  0  0  0
31  0  7  0  0  1  0  0
32  1  0  0  0  0  0  0
33  0  0  2  11  4  7  0
34  0  0  0  0  5  0  0
35  2  0  0  0  0  0  0
36  0  8  0  0  1  0  0
37  1  0  0  0  0  0  0
38  0  0  2  12  4  8  0
39  0  0  0  0  5  0  0
40  2  0  0  0  0  0  0
41  0  9  0  0  1  0  0
42  1  0  0  0  0  0  0
43  0  0  2  13  4  9  0
44  0  0  0  0  5  0  0
45  2  0  0  0  0  0  0
46  0  10  0  0  1  0  0
47  1  0  0  0  0  0  0
48  0  0  2  14  4  10  0
49  0  0  0  0  5  0  0
50  2  0  0  0  0  0  0
51  0  6  0  0  1  0  0
52  1  0  0  0  0  0  0
53  0  0  2  15  4  6  0
54  0  0  0  0  5  0  0
55  2  0  0  0  0  0  0
56  0  11  0  0  1  0  0
57  1  0  0  0  0  0  0
58  0  0  2  16  4  11  0
59  0  0  0  0  5  0  0
60  2  0  0  0  0  0  0
61  0  12  0  0  1  0  0
62  1  0  0  0  0  0  0
63  0  0  2  17  4  12  0
64  0  0  0  0  5  0  0
65  2  0  0  0  0  0  0
66  0  13  0  0  1  0  0
67  1  0  0  0  0  0  0
68  0  0  2  18  4  13  0
69  0  0  0  0  5  0  0
70  2  0  0  0  0  0  0
71  0  14  0  0  1  0  0
72  1  0  0  0  0  0  0
73  0  0  2  19  4  14  0
74  0  0  0  0  5  0  0
75  2  0  0  0  0  0  0
76  0  1  0  0  1  0  0
77  1  0  0  0  0  0  0
78  0  0  2  20  4  1  0
79  0  0  0  0  5  0  0
80  2  0  0  0  0  0  0
81  0  15  0  0  1  0  0
82  1  0  0  0  0  0  0
83  0  0  2  21  4  15  0
84  0  0  0  0  5  0  0
85  2  0  0  0  0  0  0
86  0  16  0  0  1  0  0
87  1  0  0  0  0  0  0
88  0  0  2  22  4  16  0
89  0  0  0  0  5  0  0
90  2  0  0  0  0  0  0
91  0  13  0  0  1  0  0
92  1  0  0  0  0  0  0
93  0  0  2  23  4  13  0
94  0  0  0  0  5  0  0
95  2  0  0  0  0  0  0
96  0  17  0  0  1  0  0
97  1  0  0  0  0  0  0
98  0  0  2  24  4  17  0
99  0  0  0  0  5  0  0
100  2  0  0  0  0  0  0
101  0  5  0  0  1  0  0
102  1  0  0  0  0  0  0
103  0  0  2  25  4  5  0
104  0  0  0  0  5  0  0
105  2  0  0  0  0  0  0
106  0  18  0  0  1  0  0
107  1  0  0  0  0  0  0
108  0  0  2  26  4  18  0
109  0  0  0  0  5  0  0
110  2  0  0  0  0  0  0
111  0  19  0  0  1  0  0
112  1  0  0  0  0  0  0
113  0  0  2  27  4  19  0
114  0  0  0  0  5  0  0
115  2  0  0  0  0  0  0
116  0  9  0  0  1  0  0
117  1  0  0  0  0  0  0
118  0  0  2  28  4  9  0
119  0  0  0  0  5  0  0
120  2  0  0  0  0  0  0
121  0  20  0  0  1  0  0
122  1  0  0  0  0  0  0
123  0  0  2  29  4  20  0
124  0  0  0  0  5  0  0
125  2  0  0  0  0  0  0
126  0  10  0  0  1  0  0
127  1  0  0  0  0  0  0
128  0  0  2  30  4  10  0
129  0  0  0  0  5  0  0
130  2  0  0  0  0  0  0
131  0  18  0  0  1  0  0
132  1  0  0  0  0  0  0
133  0  0  2  31  4  18  0
134  0  0  0  0  5  0  0
135  2  0  0  0  0  0  0
136  0  21  0  0  1  0  0
137  1  0  0  0  0  0  0
138  0  0  2  32  4  21  0
139  0  0  0  0  5  0  0
140  2  0  0  0  0  0  0
141  0  4  0  0  1  0  0
142  1  0  0  0  0  0  0
143  0  0  2  33  4  4  0
144  0  0  0  0  5  0  0
145  2  0  0  0  0  0  0
146  0  22  0  0  1  0  0
147  1  0  0  0  0  0  0
148  0  0  2  34  4  22  0
149  0  0  0  0  5  0  0
150  2  0  0  0  0  0  0
151  0  14  0  0  1  0  0
152  1  0  0  0  0  0  0
153  0  0  2  35  4  14  0
154  0  0  0  0  5  0  0
155  2  0  0  0  0  0  0
156  0  15  0  0  1  0  0
157  1  0  0  0  0  0  0
158  0  0  2  36  4  15  0
159  0  0  0  0  5  0  0
160  2  0  0  0  0  0  0
161  0  23  0  0  1  0  0
162  1  0  0  0  0  0  0
163  0  0  2  37  4  23  0
164  0  0  0  0  5  0  0
165  2  0  0  0  0  0  0
166  0  2  0  0  1  0  0
167  1  0  0  0  0  0  0
168  0  0  2  38  4  2  0
169  0  0  0  0  5  0  0
170  2  0  0  0  0  0  0
171  0  22  0  0  1  0  0
172  1  0  0  0  0  0  0
173  0  0  2  39  4  22  0
174  0  0  0  0  5  0  0
175  2  0  0  0  0  0  0
176  0  17  0  0  1  0  0
177  1  0  0  0  0  0  0
178  0  0  2  40  4  17  0
179  0  0  0  0  5  0  0
180  2  0  0  0  0  0  0
181  0  11  0  0  1  0  0
182  1  0  0  0  0  0  0
183  0  0  2  41  4  11  0
184  0  0  0  0  5  0  0
185  2  0  0  0  0  0  0
186  0  24  0  0  1  0  0
187  1  0  0  0  0  0  0
188  0  0  2  42  4  24  0
189  0  0  0  0  5  0  0
190  2  0  0  0  0  0  0
191  0  7  0  0  1  0  0
192  1  0  0  0  0  0  0
193  0  0  2  43  4  7  0
194  0  0  0  0  5  0  0
195  2  0  0  0  0  0  0
196  0  20  0  0  1  0  0
197  1  0  0  0  0  0  0
198  0  0  2  44  4  20  0
199  0  0  0  0  5  0  0
200  2  0  0  0  0  0  0
201  0  20  0  0  1  0  0
202  1  0  0  0  0  0  0
203  0  0  2  45  4  20  0
204  0  0  0  0  5  0  0
205  2  0  0  0  0  0  0
206  0  7  0  0  1  0  0
207  1  0  0  0  0  0  0
208  0  0  2  46  4  7  0
209  0  0  0  0  5  0  0
210  2  0  0  0  0  0  0
211  0  24  0  0  1  0  0
212  1  0  0  0  0  0  0
213  0  0  2  47  4  24  0
214  0  0  0  0  5  0  0
215  2  0  0  0  0  0  0
216  0  11  0  0  1  0  0
217  1  0  0  0  0  0  0
218  0  0  2  48  4  11  0
219  0  0  0  0  5  0  0
220  2  0  0  0  0  0  0
221  0  17  0  0  1  0  0
222  1  0  0  0  0  0  0
223  0  0  2  49  4  17  0
224  0  0  0  0  5  0  0
225  2  0  0  0  0  0  0
226  0  22  0  0  1  0  0
227  1  0  0  0  0  0  0
228  0  0  2  50  4  22  0
229  0  0  0  0  5  0  0
230  2  0  0  0  0  0  0
231  0  2  0  0  1  0  0
232  1  0  0  0  0  0  0
233  0  0  2  51  4  2  0
234  0  0  0  0  5  0  0
235  2  0  0  0  0  0  0
236  0  23  0  0  1  0  0
237  1  0  0  0  0  0  0
238  0  0  2  52  4  23  0
239  0  0  0  0  5  0  0
240  2  0  0  0  0  0  0
241  0  15  0  0  1  0  0
242  1  0  0  0  0  0  0
243  0  0  2  53  4  15  0
244  0  0  0  0  5  0  0
245  2  0  0  0  0  0  0
246  0  14  0  0  1  0  0
247  1  0  0  0  0  0  0
248  0  0  2  54  4  14  0
249  0  0  0  0  5  0  0
250  2  0  0  0  0  0  0
251  0  22  0  0  1  0  0
252  1  0  0  0  0  0  0
253  0  0  2  55  4  22  0
254  0  0  0  0  5  0  0
255  2  0  0  0  0  0  0
256  0  4  0  0  1  0  0
257  1  0  0  0  0  0  0
258  0  0  2  56  4  4  0
259  0  0  0  0  5  0  0
260  2  0  0  0  0  0  0
261  0  21  0  0  1  0  0
262  1  0  0  0  0  0  0
263  0  0  2  57  4  21  0
264  0  0  0  0  5  0  0
265  2  0  0  0  0  0  0
266  0  18  0  0  1  0  0
267  1  0  0  0  0  0  0
268  0  0  2  58  4  18  0
269  0  0  0  0  5  0  0
270  2  0  0  0  0  0  0
271  0  10  0  0  1  0  0
272  1  0  0  0  0  0  0
273  0  0  2  59  4  10  0
274  0  0  0  0  5  0  0
275  2  0  0  0  0  0  0
276  0  20  0  0  1  0  0
277  1  0  0  0  0  0  0
278  0  0  2  60  4  20  0
279  0  0  0  0  5  0  0
280  2  0  0  0  0  0  0
281  0  9  0  0  1  0  0
282  1  0  0  0  0  0  0
283  0  0  2  61  4  9  0
284  0  0  0  0  5  0  0
285  2  0  0  0  0  0  0
286  0  19  0  0  1  0  0
287  1  0  0  0  0  0  0
288  0  0  2  62  4  19  0
289  0  0  0  0  5  0  0
290  2  0  0  0  0  0  0
291  0  18  0  0  1  0  0
292  1  0  0  0  0  0  0
293  0  0  2  63  4  18  0
294  0  0  0  0  5  0  0
295  2  0  0  0  0  0  0
296  0  5  0  0  1  0  0
297  1  0  0  0  0  0  0
298  0  0  2  64  4  5  0
299  0  0  0  0  5  0  0
300  2  0  0  0  0  0  0
301  0  17  0  0  1  0  0
302  1  0  0  0  0  0  0
303  0  0  2  65  4  17  0
304  0  0  0  0  5  0  0
305  2  0  0  0  0  0  0
306  0  13  0  0  1  0  0
307  1  0  0  0  0  0  0
308  0  0  2  66  4  13  0
309  0  0  0  0  5  0  0
310  2  0  0  0  0  0  0
311  0  16  0  0  1  0  0
312  1  0  0  0  0  0  0
313  0  0  2  67  4  16  0
314  0  0  0  0  5  0  0
315  2  0  0  0  0  0  0
316  0  15  0  0  1  0  0
317  1  0  0  0  0  0  0
318  0  0  2  68  4  15  0
319  0  0  0  0  5  0  0
320  2  0  0  0  0  0  0
321  0  1  0  0  1  0  0
322  1  0  0  0  0  0  0
323  0  0  2  4  4  1  0
324  0  0  0  0  5  0  0
325  2  0  0  0  0  0  0
326  0  14  0  0  1  0  0
327  1  0  0  0  0  0  0
328  0  0  2  69  4  14  0
329  0  0  0  0  5  0  0
330  2  0  0  0  0  0  0
331  0  13  0  0  1  0  0
332  1  0  0  0  0  0  0
333  0  0  2  70  4  13  0
334  0  0  0  0  5  0  0
335  2  0  0  0  0  0  0
336  0  12  0  0  1  0  0
337  1  0  0  0  0  0  0
338  0  0  2  71  4  12  0
339  0  0  0  0  5  0  0
340  2  0  0  0  0  0  0
341  0  11  0  0  1  0  0
342  1  0  0  0  0  0  0
343  0  0  2  72  4  11  0
344  0  0  0  0  5  0  0
345  2  0  0  0  0  0  0
346  0  6  0  0  1  0  0
347  1  0  0  0  0  0  0
348  0  0  2  73  4  6  0
349  0  0  0  0  5  0  0
350  2  0  0  0  0  0  0
351  0  10  0  0  1  0  0
352  1  0  0  0  0  0  0
353  0  0  2  74  4  10  0
354  0  0  0  0  5  0  0
355  2  0  0  0  0  0  0
356  0  9  0  0  1  0  0
357  1  0  0  0  0  0  0
358  0  0  2  75  4  9  0
359  0  0  0  0  5  0  0
360  2  0  0  0  0  0  0
361  0  8  0  0  1  0  0
362  1  0  0  0  0  0  0
363  0  0  2  76  4  8  0
364  0  0  0  0  5  0  0
365  2  0  0  0  0  0  0
366  0  7  0  0  1  0  0
367  1  0  0  0  0  0  0
368  0  0  2  77  4  7  0
369  0  0  0  0  5  0  0
370  2  0  0  0  0  0  0
371  0  6  0  0  1  0  0
372  1  0  0  0  0  0  0
373  0  0  2  78  4  6  0
374  0  0  0  0  5  0  0
375  2  0  0  0  0  0  0
376  0  5  0  0  1  0  0
377  1  0  0  0  0  0  0
378  0  0  2  79  4  5  0
379  0  0  0  0  5  0  0
380  2  0  0  0  0  0  0
381  0  4  0  0  1  0  0
382  1  0  0  0  0  0  0
383  0  0  2  80  4  4  0
384  0  0  0  0  5  0  0
385  2  0  0  0  0  0  0
386  0  3  0  0  1  0  0
387  1  0  0  0  0  0  0
388  0  0  2  81  4  3  0
389  0  0  0  0  5  0  0
390  2  0  0  0  0  0  0
391  0  2  0  0  1  0  0
392  1  0  0  0  0  0  0
393  0  0  2  82  4  2  0
394  0  0  0  0  5  0  0
395  2  0  0  0  0  0  0
396  0  1  0  0  1  0  0
397  1  0  0  0  0  0  0
398  0  0  2  83  4  1  0
399  0  0  0  0  5  0  0
400  2  0  0  0  0  0  0
401  0  1  0  0  1  0  0
402  1  0  0  0  0  0  0
403  0  0  2  84  4  1  0
404  0  0  0  0  5  0  0
405  2  0  0  0  0  0  0
406  0  2  0  0  1  0  0
407  1  0  0  0  0  0  0
408  0  0  2  85  4  2  0
409  0  0  0  0  5  0  0
410  2  0  0  0  0  0  0
411  0  3  0  0  1  0  0
412  1  0  0  0  0  0  0
413  0  0  2  86  4  3  0
414  0  0  0  0  5  0  0
415  2  0  0  0  0  0  0
416  0  4  0  0  1  0  0
417  1  0  0  0  0  0  0
418  0  0  2  87  4  4  0
419  0  0  0  0  5  0  0
420  2  0  0  0  0  0  0
421  0  5  0  0  1  0  0
422  1  0  0  0  0  0  0
423  0  0  2  88  4  5  0
424  0  0  0  0  5  0  0
425  2  0  0  0  0  0  0
426  0  6  0  0  1  0  0
427  1  0  0  0  0  0  0
428  0  0  2  89  4  6  0
429  0  0  0  0  5  0  0
430  2  0  0  0  0  0  0
431  0  7  0  0  1  0  0
432  1  0  0  0  0  0  0
433  0  0  2  90  4  7  0
434  0  0  0  0  5  0  0
435  2  0  0  0  0  0  0
436  0  8  0  0  1  0  0
437  1  0  0  0  0  0  0
438  0  0  2  91  4  8  0
439  0  0  0  0  5  0  0
440  2  0  0  0  0  0  0
441  0  9  0  0  1  0  0
442  1  0  0  0  0  0  0
443  0  0  2  92  4  9  0
444  0  0  0  0  5  0  0
445  2  0  0  0  0  0  0
446  0  10  0  0  1  0  0
447  1  0  0  0  0  0  0
448  0  0  2  93  4  10  0
449  0  0  0  0  5  0  0
450  2  0  0  0  0  0  0
451  0  6  0  0  1  0  0
452  1  0  0  0  0  0  0
453  0  0  2  94  4  6  0
454  0  0  0  0  5  0  0
455  2  0  0  0  0  0  0
456  0  11  0  0  1  0  0
457  1  0  0  0  0  0  0
458  0  0  2  95  4  11  0
459  0  0  0  0  5  0  0
460  2  0  0  0  0  0  0
461  0  12  0  0  1  0  0
462  1  0  0  0  0  0  0
463  0  0  2  96  4  12  0
464  0  0  0  0  5  0  0
465  2  0  0  0  0  0  0
466  0  13  0  0  1  0  0
467  1  0  0  0  0  0  0
468  0  0  2  97  4  13  0
469  0  0  0  0  5  0  0
470  2  0  0  0  0  0  0
471  0  14  0  0  1  0  0
472  1  0  0  0  0  0  0
473  0  0  2  98  4  14  0
474  0  0  0  0  5  0  0
475  2  0  0  0  0  0  0
476  0  1  0  0  1  0  0
477  1  0  0  0  0  0  0
478  0  0  2  99  4  1  0
479  0  0  0  0  5  0  0
480  2  0  0  0  0  0  0
481  0  15  0  0  1  0  0
482  1  0  0  0  0  0  0
483  0  0  2  100  4  15  0
484  0  0  0  0  5  0  0
485  2  0  0  0  0  0  0
486  0  16  0  0  1  0  0
487  1  0  0  0  0  0  0
488  0  0  2  101  4  16  0
489  0  0  0  0  5  0  0
490  2  0  0  0  0  0  0
491  0  13  0  0  1  0  0
492  1  0  0  0  0  0  0
493  0  0  2  102  4  13  0
494  0  0  0  0  5  0  0
495  2  0  0  0  0  0  0
496  0  17  0  0  1  0  0
497  1  0  0  0  0  0  0
498  0  0  2  103  4  17  0
499  0  0  0  0  5  0  0
500  2  0  0  0  0  0  0
501  0  5  0  0  1  0  0
502  1  0  0  0  0  0  0
503  0  0  2  104  4  5  0
504  0  0  0  0  5  0  0
505  2  0  0  0  0  0  0
506  0  18  0  0  1  0  0
507  1  0  0  0  0  0  0
508  0  0  2  105  4  18  0
509  0  0  0  0  5  0  0
510  2  0  0  0  0  0  0
511  0  19  0  0  1  0  0
512  1  0  0  0  0  0  0
513  0  0  2  106  4  19  0
514  0  0  0  0  5  0  0
515  2  0  0  0  0  0  0
516  0  9  0  0  1  0  0
517  1  0  0  0  0  0  0
518  0  0  2  107  4  9  0
519  0  0  0  0  5  0  0
520  2  0  0  0  0  0  0
521  0  20  0  0  1  0  0
522  1  0  0  0  0  0  0
523  0  0  2  108  4  20  0
524  0  0  0  0  5  0  0
525  2  0  0  0  0  0  0
526  0  10  0  0  1  0  0
527  1  0  0  0  0  0  0
528  0  0  2  109  4  10  0
529  0  0  0  0  5  0  0
530  2  0  0  0  0  0  0
531  0  18  0  0  1  0  0
532  1  0  0  0  0  0  0
533  0  0  2  110  4  18  0
534  0  0  0  0  5  0  0
535  2  0  0  0  0  0  0
536  0  21  0  0  1  0  0
537  1  0  0  0  0  0  0
538  0  0  2  111  4  21  0
539  0  0  0  0  5  0  0
540  2  0  0  0  0  0  0
541  0  4  0  0  1  0  0
542  1  0  0  0  0  0  0
543  0  0  2  112  4  4  0
544  0  0  0  0  5  0  0
545  2  0  0  0  0  0  0
546  0  22  0  0  1  0  0
547  1  0  0  0  0  0  0
548  0  0  2  113  4  22  0
549  0  0  0  0  5  0  0
550  2  0  0  0  0  0  0
551  0  14  0  0  1  0  0
552  1  0  0  0  0  0  0
553  0  0  2  114  4  14  0
554  0  0  0  0  5  0  0
555  2  0  0  0  0  0  0
556  0  15  0  0  1  0  0
557  1  0  0  0  0  0  0
558  0  0  2  115  4  15  0
559  0  0  0  0  5  0  0
560  2  0  0  0  0  0  0
561  0  23  0  0  1  0  0
562  1  0  0  0  0  0  0
563  0  0  2  116  4  23  0
564  0  0  0  0  5  0  0
565  2  0  0  0  0  0  0
566  0  2  0  0  1  0  0
567  1  0  0  0  0  0  0
568  0  0  2  117  4  2  0
569  0  0  0  0  5  0  0
570  2  0  0  0  0  0  0
571  0  22  0  0  1  0  0
572  1  0  0  0  0  0  0
573  0  0  2  118  4  22  0
574  0  0  0  0  5  0  0
575  2  0  0  0  0  0  0
576  0  17  0  0  1  0  0
577  1  0  0  0  0  0  0
578  0  0  2  119  4  17  0
579  0  0  0  0  5  0  0
580  2  0  0  0  0  0  0
581  0  11  0  0  1  0  0
582  1  0  0  0  0  0  0
583  0  0  2  120  4  11  0
584  0  0  0  0  5  0  0
585  2  0  0  0  0  0  0
586  0  24  0  0  1  0  0
587  1  0  0  0  0  0  0
588  0  0  2  121  4  24  0
589  0  0  0  0  5  0  0
590  2  0  0  0  0  0  0
591  0  7  0  0  1  0  0
592  1  0  0  0  0  0  0
593  0  0  2  122  4  7  0
594  0  0  0  0  5  0  0
595  2  0  0  0  0  0  0
596  0  20  0  0  1  0  0
597  1  0  0  0  0  0  0
598  0  0  2  123  4  20  0
599  0  0  0  0  5  0  0
600  2  0  0  0  0  0  0
601  0  20  0  0  1  0  0
602  1  0  0  0  0  0  0
603  0  0  2  124  4  20  0
604  0  0  0  0  5  0  0
605  2  0  0  0  0  0  0
606  0  7  0  0  1  0  0
607  1  0  0  0  0  0  0
608  0  0  2  125  4  7  0
609  0  0  0  0  5  0  0
610  2  0  0  0  0  0  0
611  0  24  0  0  1  0  0
612  1  0  0  0  0  0  0
613  0  0  2  126  4  24  0
614  0  0  0  0  5  0  0
615  2  0  0  0  0  0  0
616  0  11  0  0  1  0  0
617  1  0  0  0  0  0  0
618  0  0  2  127  4  11  0
619  0  0  0  0  5  0  0
620  2  0  0  0  0  0  0
621  0  17  0  0  1  0  0
622  1  0  0  0  0  0  0
623  0  0  2  128  4  17  0
624  0  0  0  0  5  0  0
625  2  0  0  0  0  0  0
626  0  22  0  0  1  0  0
627  1  0  0  0  0  0  0
628  0  0  2  129  4  22  0
629  0  0  0  0  5  0  0
630  2  0  0  0  0  0  0
631  0  2  0  0  1  0  0
632  1  0  0  0  0  0  0
633  0  0  2  130  4  2  0
634  0  0  0  0  5  0  0
635  2  0  0  0  0  0  0
636  0  23  0  0  1  0  0
637  1  0  0  0  0  0  0
638  0  0  2  131  4  23  0
639  0  0  0  0  5  0  0

# Format of RF events:
# id amplitude mag_id phase_id delay freq phase
# ..        Hz   ....     ....   us   Hz   rad
[RF]
1   84.947700 1 2 60 0.000000 2.042035
2   84.947700 1 2 60 0.000000 -2.199115
3   84.947700 1 2 60 0.000000 1.884956
4   84.947700 1 2 60 0.000000 1.727876
5   84.947700 1 2 60 0.000000 -2.670354
6   84.947700 1 2 60 0.000000 1.256637
7   84.947700 1 2 60 0.000000 0.942478
8   84.947700 1 2 60 0.000000 2.670354
9   84.947700 1 2 60 0.000000 0.157080
10   84.947700 1 2 60 0.000000 -0.314159
11   84.947700 1 2 60 0.000000 -1.413717
12   84.947700 1 2 60 0.000000 -2.042035
13   84.947700 1 2 60 0.000000 -0.628319
14   84.947700 1 2 60 0.000000 2.827433
15   84.947700 1 2 60 0.000000 -2.984513
16   84.947700 1 2 60 0.000000 0.314159
17   84.947700 1 2 60 0.000000 0.471239
18   84.947700 1 2 60 0.000000 2.513274
19   84.947700 1 2 60 0.000000 -2.827433
20   84.947700 1 2 60 0.000000 -1.099557
21   84.947700 1 2 60 0.000000 1.099557
22   84.947700 1 2 60 0.000000 -1.884956
23   84.947700 1 2 60 0.000000 -0.471239
24   84.947700 1 2 60 0.000000 -1.256637

# Format of gradients:
# id amplitude shape_id  delay
# ..  Hz/m    ..    us
[GRADIENTS]
1 1515012.8286482 3 0
2 2149511.6712361 4 0
3 2128677.8033733 5 0
4 0.0 6 0
5 1666709.4290242 7 0
6 2095417.2126956 5 0
7 2062156.6220179 5 0
8 2028896.0313402 5 0
9 1995635.4406625 5 0
10 1962374.8499848 5 0
11 1929114.2593071 5 0
12 1895853.6686294 5 0
13 1862593.0779516 5 0
14 1829332.4872739 5 0
15 1796071.8965962 5 0
16 1762811.3059185 5 0
17 1729550.7152408 5 0
18 1696290.1245631 5 0
19 1663029.5338854 5 0
20 1629768.9432077 5 0
21 1596508.35253 5 0
22 1563247.7618523 5 0
23 1529987.1711746 5 0
24 1496726.5804969 5 0
25 1463465.9898192 5 0
26 1430205.3991414 5 0
27 1396944.8084637 5 0
28 1363684.217786 5 0
29 1330423.6271083 5 0
30 1297163.0364306 5 0
31 1263902.4457529 5 0
32 1230641.8550752 5 0
33 1197381.2643975 5 0
34 1164120.6737198 5 0
35 1130860.0830421 5 0
36 1097599.4923644 5 0
37 1064338.9016867 5 0
38 1031078.3110089 5 0
39 997817.72033124 5 0
40 964557.12965353 5 0
41 931296.53897582 5 0
42 898035.94829812 5 0
43 864775.35762041 5 0
44 831514.7669427 5 0
45 798254.17626499 5 0
46 764993.58558728 5 0
47 731732.99490958 5 0
48 698472.40423187 5 0
49 665211.81355416 5 0
50 631951.22287645 5 0
51 598690.63219874 5 0
52 565430.04152104 5 0
53 532169.45084333 5 0
54 498908.86016562 5 0
55 465648.26948791 5 0
56 432387.6788102 5 0
57 399127.0881325 5 0
58 365866.49745479 5 0
59 332605.90677708 5 0
60 299345.31609937 5 0
61 266084.72542166 5 0
62 232824.13474396 5 0
63 199563.54406625 5 0
64 166302.95338854 5 0
65 133042.36271083 5 0
66 99781.772033124 5 0
67 66521.181355416 5 0
68 33260.590677708 5 0
69 33260.590677708 8 0
70 66521.181355416 8 0
71 99781.772033124 8 0
72 133042.36271083 8 0
73 166302.95338854 8 0
74 199563.54406625 8 0
75 232824.13474396 8 0
76 266084.72542166 8 0
77 299345.31609937 8 0
78 332605.90677708 8 0
79 365866.49745479 8 0
80 399127.0881325 8 0
81 432387.6788102 8 0
82 465648.26948791 8 0
83 498908.86016562 8 0
84 532169.45084333 8 0
85 565430.04152104 8 0
86 598690.63219874 8 0
87 631951.22287645 8 0
88 665211.81355416 8 0
89 698472.40423187 8 0
90 731732.99490958 8 0
91 764993.58558728 8 0
92 798254.17626499 8 0
93 831514.7669427 8 0
94 864775.35762041 8 0
95 898035.94829812 8 0
96 931296.53897582 8 0
97 964557.12965353 8 0
98 997817.72033124 8 0
99 1031078.3110089 8 0
100 1064338.9016867 8 0
101 1097599.4923644 8 0
102 1130860.0830421 8 0
103 1164120.6737198 8 0
104 1197381.2643975 8 0
105 1230641.8550752 8 0
106 1263902.4457529 8 0
107 1297163.0364306 8 0
108 1330423.6271083 8 0
109 1363684.217786 8 0
110 1396944.8084637 8 0
111 1430205.3991414 8 0
112 1463465.9898192 8 0
113 1496726.5804969 8 0
114 1529987.1711746 8 0
115 1563247.7618523 8 0
116 1596508.35253 8 0
117 1629768.9432077 8 0
118 1663029.5338854 8 0
119 1696290.1245631 8 0
120 1729550.7152408 8 0
121 1762811.3059185 8 0
122 1796071.8965962 8 0
123 1829332.4872739 8 0
124 1862593.0779516 8 0
125 1895853.6686294 8 0
126 1929114.2593071 8 0
127 1962374.8499848 8 0
128 1995635.4406625 8 0
129 2028896.0313402 8 0
130 2062156.6220179 8 0
131 2095417.2126956 8 0

# Format of ADC events:
# id num dwell delay freq phase
# ..  ..    ns    us   Hz   rad
[ADC]
1  128 15625 520 0.000000 2.042035
2  128 15625 520 0.000000 -2.199115
3  128 15625 520 0.000000 1.884956
4  128 15625 520 0.000000 1.727876
5  128 15625 520 0.000000 -2.670354
6  128 15625 520 0.000000 1.256637
7  128 15625 520 0.000000 0.942478
8  128 15625 520 0.000000 2.670354
9  128 15625 520 0.000000 0.157080
10  128 15625 520 0.000000 -0.314159
11  128 15625 520 0.000000 -1.413717
12  128 15625 520 0.000000 -2.042035
13  128 15625 520 0.000000 -0.628319
14  128 15625 520 0.000000 2.827433
15  128 15625 520 0.000000 -2.984513
16  128 15625 520 0.000000 0.314159
17  128 15625 520 0.000000 0.471239
18  128 15625 520 0.000000 2.513274
19  128 15625 520 0.000000 -2.827433
20  128 15625 520 0.000000 -1.099557
21  128 15625 520 0.000000 1.099557
22  128 15625 520 0.000000 -1.884956
23  128 15625 520 0.000000 -0.471239
24  128 15625 520 0.000000 -1.256637

# Format of delays:
# id delay (us)
[DELAYS]
1 1420
2 1560

# Sequence Shapes
[SHAPES]
shape_id 1
num_samples 2560
0.0
0.0
248
-0.0001
-0.0001
38
0.0
0.0
8
0.0001
0.0001
8
0.0002
0.0002
48
0.0003
0.0003
48
0.0004
0.0004
138
0.0003
0.0003
28
0.0002
0.0002
18
0.0001
0.0001
18
0.0
0.0
18
-0.0001
-0.0001
8
-0.0002
-0.0002
18
-0.0003
-0.0003
8
-0.0004
-0.0004
8
-0.0005
-0.0005
8
-0.0006
-0.0006
8
-0.0007
-0.0007
8
-0.0008
-0.0008
18
-0.0009
-0.0009
8
-0.001
-0.001
8
-0.0011
-0.0011
8
-0.0012
-0.0012
8
-0.0007
-0.0007
8
0.0015
0.0015
8
0.0016
0.0016
8
0.0017
0.0017
8
0.0018
0.0018
8
0.0019
0.0019
18
0.002
0.002
8
0.0021
0.0021
8
0.0022
0.0022
8
0.0023
0.0023
8
0.0024
0.0024
8
0.0025
0.0025
18
0.0026
0.0026
18
0.0027
0.0027
18
0.0028
0.0028
88
0.0027
0.0027
18
0.0026
0.0026
18
0.0025
0.0025
8
0.0024
0.0024
8
0.0023
0.0023
8
0.0022
0.0022
8
0.0021
0.0021
8
0.002
0.002
8
0.0019
0.0019
8
0.0018
0.0018
8
0.0016
0.0016
8
0.0015
0.0015
8
0.0013
0.0013
8
0.0012
0.0012
8
0.0011
0.0011
8
0.0009
0.0009
8
0.0007
0.0007
8
0.0006
0.0006
8
0.0004
0.0004
8
0.0002
0.0002
8
0.0001
0.0001
8
-0.0001
-0.0001
8
-0.0002
-0.0002
8
-0.0004
-0.0004
8
-0.0006
-0.0006
8
-0.0007
-0.0007
8
-0.0009
-0.0009
8
-0.0011
-0.0011
8
-0.0012
-0.0012
8
-0.0013
-0.0013
8
-0.0015
-0.0015
8
-0.0016
-0.0016
8
-0.0018
-0.0018
8
-0.0019
-0.0019
8
-0.002
-0.002
8
-0.0021
-0.0021
8
-0.0022
-0.0022
8
-0.0023
-0.0023
8
-0.0024
-0.0024
8
-0.0025
-0.0025
8
-0.0026
-0.0026
18
-0.0027
-0.0027
18
-0.0028
-0.0028
88
-0.0027
-0.0027
18
-0.0026
-0.0026
18
-0.0025
-0.0025
18
-0.0024
-0.0024
8
-0.0023
-0.0023
8
-0.0022
-0.0022
8
-0.0021
-0.0021
8
-0.002
-0.002
8
-0.0019
-0.0019
18
-0.0018
-0.0018
8
-0.0017
-0.0017
8
-0.0016
-0.0016
8
-0.0015
-0.0015
8
0.0007
0.0007
8
0.0012
0.0012
8
0.0011
0.0011
8
0.001
0.001
8
0.0009
0.0009
8
0.0008
0.0008
18
0.0007
0.0007
8
0.0006
0.0006
8
0.0005
0.0005
8
0.0004
0.0004
8
0.0003
0.0003
8
0.0002
0.0002
18
0.0001
0.0001
8
0.0
0.0
18
-0.0001
-0.0001
18
-0.0002
-0.0002
18
-0.0003
-0.0003
28
-0.0004
-0.0004
138
-0.0003
-0.0003
48
-0.0002
-0.0002
48
-0.0001
-0.0001
8
0.0
0.0
8
0.0001
0.0001
38
0.0
0.0
248


shape_id 2
num_samples 2560
0.0
0.0
298
0.5
0.0
0.0
487
-0.5
0.0
0.0
987
0.5
0.0
0.0
487
-0.5
0.0
0.0
287


shape_id 3
num_samples 340
0.0447
0.0447
4
0.0
0.0
254
-0.0447
-0.0447
4
-0.0305
-0.0305
22
0.0
0.0
22
0.0305
0.0305
22


shape_id 4
num_samples 302
-0.0206
-0.0206
22
0.0206
0.0206
22
0.0291
0.0291
2
0.0
0.0
198
-0.0291
-0.0291
2
0.022
0.022
21
-0.022
-0.022
21


shape_id 5
num_samples 302
-0.0204
-0.0204
22
0.0204
0.0204
22
0.0
0.0
206
0.0222
0.0222
21
-0.0222
-0.0222
21


shape_id 6
num_samples 302
0.0
0.0
300


shape_id 7
num_samples 60
0.0417
0.0417
22
0.0
0.0
10
-0.0417
-0.0417
22


shape_id 8
num_samples 302
0.0204
0.0204
22
-0.0204
-0.0204
22
0.0
0.0
206
-0.0222
-0.0222
21
0.0222
0.0222
21




